# Average Spectral response curve for JWST MIRI F1500W

#Detector Type
Photon counter

# Wave (microns)     Filter Response
12.7740 0.0001
12.7800 0.0001
12.7860 0.0001
12.7910 0.0001
12.7970 0.0001
12.8030 0.0002
12.8090 0.0002
12.8150 0.0002
12.8200 0.0002
12.8260 0.0002
12.8320 0.0002
12.8380 0.0003
12.8440 0.0003
12.8490 0.0003
12.8550 0.0003
12.8610 0.0003
12.8670 0.0003
12.8730 0.0003
12.8780 0.0004
12.8840 0.0004
12.8900 0.0004
12.8960 0.0004
12.9020 0.0005
12.9070 0.0005
12.9130 0.0005
12.9190 0.0006
12.9250 0.0006
12.9310 0.0007
12.9360 0.0007
12.9420 0.0007
12.9480 0.0008
12.9540 0.0008
12.9600 0.0009
12.9650 0.0009
12.9710 0.001
12.9770 0.001
12.9830 0.0011
12.9890 0.0011
12.9940 0.0012
13.0000 0.0012
13.0060 0.0013
13.0120 0.0014
13.0180 0.0015
13.0230 0.0015
13.0290 0.0016
13.0350 0.0017
13.0410 0.0018
13.0470 0.0019
13.0520 0.002
13.0580 0.0021
13.0640 0.0023
13.0700 0.0024
13.0760 0.0025
13.0810 0.0026
13.0870 0.0028
13.0930 0.0029
13.0990 0.0031
13.1050 0.0032
13.1100 0.0034
13.1160 0.0036
13.1220 0.0038
13.1280 0.004
13.1340 0.0042
13.1390 0.0044
13.1450 0.0047
13.1510 0.005
13.1570 0.0053
13.1630 0.0056
13.1680 0.0059
13.1740 0.0062
13.1800 0.0066
13.1860 0.007
13.1920 0.0074
13.1970 0.0078
13.2030 0.0083
13.2090 0.0088
13.2150 0.0093
13.2210 0.0099
13.2260 0.0105
13.2320 0.0112
13.2380 0.0118
13.2440 0.0126
13.2500 0.0134
13.2550 0.0142
13.2610 0.0151
13.2670 0.0162
13.2730 0.0172
13.2790 0.0183
13.2840 0.0195
13.2900 0.0208
13.2960 0.0221
13.3020 0.0235
13.3080 0.0251
13.3130 0.0268
13.3190 0.0284
13.3250 0.0303
13.3310 0.0323
13.3370 0.0343
13.3420 0.0365
13.3480 0.039
13.3540 0.0414
13.3600 0.0439
13.3660 0.0468
13.3710 0.0498
13.3770 0.0528
13.3830 0.0561
13.3890 0.0596
13.3950 0.0632
13.4000 0.0668
13.4060 0.071
13.4120 0.0752
13.4180 0.0794
13.4240 0.0839
13.4290 0.0888
13.4350 0.0936
13.4410 0.0985
13.4470 0.1039
13.4530 0.1092
13.4580 0.1146
13.4640 0.1203
13.4700 0.1261
13.4760 0.1319
13.4820 0.1377
13.4870 0.1438
13.4930 0.1498
13.4990 0.1559
13.5050 0.1621
13.5110 0.1684
13.5160 0.1748
13.5220 0.181
13.5280 0.1872
13.5340 0.1934
13.5400 0.1996
13.5450 0.2054
13.5510 0.2111
13.5570 0.2169
13.5630 0.2224
13.5690 0.2276
13.5740 0.2329
13.5800 0.2381
13.5860 0.2426
13.5920 0.2471
13.5980 0.2516
13.6030 0.2557
13.6090 0.2595
13.6150 0.2633
13.6210 0.2671
13.6270 0.2701
13.6320 0.2732
13.6380 0.2764
13.6440 0.279
13.6500 0.2815
13.6560 0.2839
13.6610 0.2863
13.6670 0.2882
13.6730 0.2901
13.6790 0.292
13.6850 0.2936
13.6900 0.2951
13.6960 0.2966
13.7020 0.2979
13.7080 0.299
13.7140 0.3001
13.7190 0.3013
13.7250 0.3021
13.7310 0.303
13.7370 0.3038
13.7430 0.3046
13.7480 0.3053
13.7540 0.3059
13.7600 0.3066
13.7660 0.3071
13.7720 0.3076
13.7770 0.3082
13.7830 0.3087
13.7890 0.3091
13.7950 0.3095
13.8010 0.31
13.8060 0.3104
13.8120 0.3108
13.8180 0.3111
13.8240 0.3115
13.8300 0.3118
13.8350 0.3122
13.8410 0.3125
13.8470 0.3128
13.8530 0.3131
13.8590 0.3134
13.8640 0.3137
13.8700 0.3139
13.8760 0.3142
13.8820 0.3145
13.8880 0.3148
13.8930 0.3151
13.8990 0.3154
13.9050 0.3158
13.9110 0.3161
13.9170 0.3164
13.9220 0.3168
13.9280 0.3172
13.9340 0.3175
13.9400 0.3179
13.9460 0.3183
13.9510 0.3187
13.9570 0.319
13.9630 0.3194
13.9690 0.3198
13.9750 0.3202
13.9800 0.3205
13.9860 0.3209
13.9920 0.3213
13.9980 0.3216
14.0040 0.3221
14.0090 0.3226
14.0150 0.3231
14.0210 0.3236
14.0270 0.3241
14.0330 0.3246
14.0380 0.3251
14.0440 0.3256
14.0500 0.3261
14.0560 0.3267
14.0620 0.3272
14.0670 0.3277
14.0730 0.3282
14.0790 0.3288
14.0850 0.3293
14.0910 0.3298
14.0960 0.3303
14.1020 0.3308
14.1080 0.3313
14.1140 0.3319
14.1200 0.3324
14.1250 0.3329
14.1310 0.3334
14.1370 0.3339
14.1430 0.3344
14.1490 0.3349
14.1540 0.3354
14.1600 0.3359
14.1660 0.3364
14.1720 0.3369
14.1780 0.3375
14.1830 0.338
14.1890 0.3386
14.1950 0.3392
14.2010 0.3397
14.2070 0.3403
14.2120 0.3409
14.2180 0.3415
14.2240 0.3421
14.2300 0.3427
14.2360 0.3433
14.2410 0.3438
14.2470 0.3443
14.2530 0.3448
14.2590 0.3454
14.2650 0.3458
14.2700 0.3462
14.2760 0.3466
14.2820 0.3469
14.2880 0.3472
14.2940 0.3475
14.2990 0.3477
14.3050 0.3479
14.3110 0.3481
14.3170 0.3482
14.3230 0.3484
14.3280 0.3485
14.3340 0.3486
14.3400 0.3487
14.3460 0.3488
14.3520 0.349
14.3570 0.3491
14.3630 0.3493
14.3690 0.3495
14.3750 0.3498
14.3810 0.35
14.3860 0.3503
14.3920 0.3507
14.3980 0.351
14.4040 0.3514
14.4100 0.3517
14.4150 0.3521
14.4210 0.3525
14.4270 0.3528
14.4330 0.3532
14.4390 0.3535
14.4440 0.3538
14.4500 0.3541
14.4560 0.3544
14.4620 0.3546
14.4680 0.3548
14.4730 0.355
14.4790 0.3552
14.4850 0.3553
14.4910 0.3555
14.4970 0.3557
14.5020 0.3558
14.5080 0.3557
14.5140 0.3557
14.5200 0.3556
14.5260 0.3557
14.5310 0.3559
14.5370 0.356
14.5430 0.3562
14.5490 0.3565
14.5550 0.3568
14.5600 0.3572
14.5660 0.3576
14.5720 0.358
14.5780 0.3584
14.5840 0.3589
14.5890 0.3593
14.5950 0.3598
14.6010 0.3602
14.6070 0.3606
14.6130 0.361
14.6180 0.3613
14.6240 0.3617
14.6300 0.362
14.6360 0.3623
14.6420 0.3625
14.6470 0.3628
14.6530 0.363
14.6590 0.3632
14.6650 0.3634
14.6710 0.3636
14.6760 0.3638
14.6820 0.364
14.6880 0.3642
14.6940 0.3644
14.7000 0.3646
14.7050 0.3648
14.7110 0.3649
14.7170 0.3651
14.7230 0.3653
14.7290 0.3655
14.7340 0.3657
14.7400 0.3659
14.7460 0.366
14.7520 0.3662
14.7580 0.3664
14.7630 0.3666
14.7690 0.3668
14.7750 0.367
14.7810 0.3672
14.7870 0.3674
14.7920 0.3676
14.7980 0.3678
14.8040 0.368
14.8100 0.3682
14.8160 0.3684
14.8210 0.3686
14.8270 0.3688
14.8330 0.3689
14.8390 0.3691
14.8450 0.3692
14.8500 0.3694
14.8560 0.3695
14.8620 0.3696
14.8680 0.3696
14.8740 0.3697
14.8790 0.3697
14.8850 0.3697
14.8910 0.3696
14.8970 0.3696
14.9030 0.3695
14.9080 0.3693
14.9140 0.3691
14.9200 0.369
14.9260 0.3688
14.9320 0.3686
14.9370 0.3684
14.9430 0.3682
14.9490 0.3681
14.9550 0.368
14.9610 0.3679
14.9660 0.368
14.9720 0.368
14.9780 0.3681
14.9840 0.3682
14.9900 0.3683
14.9950 0.3685
15.0010 0.3686
15.0070 0.3686
15.0130 0.3687
15.0190 0.3687
15.0240 0.3687
15.0300 0.3686
15.0360 0.3686
15.0420 0.3685
15.0480 0.3683
15.0530 0.3681
15.0590 0.368
15.0650 0.3677
15.0710 0.3674
15.0770 0.3672
15.0820 0.3669
15.0880 0.3665
15.0940 0.3662
15.1000 0.3658
15.1060 0.3654
15.1110 0.365
15.1170 0.3646
15.1230 0.3642
15.1290 0.3638
15.1350 0.3634
15.1400 0.3629
15.1460 0.3625
15.1520 0.362
15.1580 0.3615
15.1640 0.3611
15.1690 0.3605
15.1750 0.36
15.1810 0.3595
15.1870 0.359
15.1930 0.3585
15.1980 0.3579
15.2040 0.3573
15.2100 0.3568
15.2160 0.3562
15.2220 0.3556
15.2270 0.355
15.2330 0.3543
15.2390 0.3537
15.2450 0.353
15.2510 0.3523
15.2560 0.3517
15.2620 0.351
15.2680 0.3503
15.2740 0.3496
15.2800 0.3489
15.2850 0.3482
15.2910 0.3474
15.2970 0.3467
15.3030 0.346
15.3090 0.3454
15.3140 0.3447
15.3200 0.344
15.3260 0.3434
15.3320 0.3427
15.3380 0.3421
15.3430 0.3415
15.3490 0.341
15.3550 0.3404
15.3610 0.3399
15.3670 0.3394
15.3720 0.3389
15.3780 0.3385
15.3840 0.3381
15.3900 0.3377
15.3960 0.3373
15.4010 0.337
15.4070 0.3367
15.4130 0.3364
15.4190 0.3361
15.4250 0.3359
15.4300 0.3357
15.4360 0.3354
15.4420 0.3352
15.4480 0.3351
15.4540 0.3349
15.4590 0.3347
15.4650 0.3346
15.4710 0.3345
15.4770 0.3343
15.4830 0.3342
15.4880 0.3341
15.4940 0.334
15.5000 0.3339
15.5060 0.3337
15.5120 0.3335
15.5170 0.3334
15.5230 0.3332
15.5290 0.333
15.5350 0.3328
15.5410 0.3327
15.5460 0.3325
15.5520 0.3323
15.5580 0.3321
15.5640 0.3319
15.5700 0.3316
15.5750 0.3314
15.5810 0.3312
15.5870 0.3309
15.5930 0.3307
15.5990 0.3304
15.6040 0.3302
15.6100 0.3299
15.6160 0.3296
15.6220 0.3294
15.6280 0.3291
15.6330 0.3288
15.6390 0.3286
15.6450 0.3283
15.6510 0.328
15.6570 0.3278
15.6620 0.3275
15.6680 0.3273
15.6740 0.327
15.6800 0.3268
15.6860 0.3266
15.6910 0.3264
15.6970 0.3262
15.7030 0.326
15.7090 0.3258
15.7150 0.3257
15.7200 0.3255
15.7260 0.3254
15.7320 0.3253
15.7380 0.3252
15.7440 0.3251
15.7490 0.3251
15.7550 0.3251
15.7610 0.3251
15.7670 0.3252
15.7730 0.3253
15.7780 0.3253
15.7840 0.3255
15.7900 0.3257
15.7960 0.3259
15.8020 0.3261
15.8070 0.3263
15.8130 0.3266
15.8190 0.3269
15.8250 0.3272
15.8310 0.3275
15.8360 0.3279
15.8420 0.3282
15.8480 0.3286
15.8540 0.329
15.8600 0.3293
15.8650 0.3297
15.8710 0.3301
15.8770 0.3304
15.8830 0.3308
15.8890 0.3311
15.8940 0.3315
15.9000 0.3318
15.9060 0.3321
15.9120 0.3324
15.9180 0.3327
15.9230 0.333
15.9290 0.3332
15.9350 0.3335
15.9410 0.3337
15.9470 0.3339
15.9520 0.3341
15.9580 0.3343
15.9640 0.3345
15.9700 0.3347
15.9760 0.3348
15.9810 0.335
15.9870 0.3352
15.9930 0.3353
15.9990 0.3355
16.0050 0.3357
16.0100 0.3361
16.0160 0.3364
16.0220 0.3367
16.0280 0.337
16.0340 0.3373
16.0390 0.3376
16.0450 0.3378
16.0510 0.3381
16.0570 0.3383
16.0630 0.3385
16.0680 0.3386
16.0740 0.3388
16.0800 0.3389
16.0860 0.339
16.0920 0.3391
16.0970 0.3391
16.1030 0.3392
16.1090 0.3392
16.1150 0.3392
16.1210 0.3392
16.1260 0.3391
16.1320 0.3391
16.1380 0.339
16.1440 0.3389
16.1500 0.3388
16.1550 0.3387
16.1610 0.3386
16.1670 0.3384
16.1730 0.3383
16.1790 0.3382
16.1840 0.338
16.1900 0.3379
16.1960 0.3377
16.2020 0.3376
16.2080 0.3374
16.2130 0.3373
16.2190 0.3372
16.2250 0.3371
16.2310 0.337
16.2370 0.337
16.2420 0.3369
16.2480 0.3369
16.2540 0.3369
16.2600 0.3369
16.2660 0.3369
16.2710 0.3369
16.2770 0.337
16.2830 0.337
16.2890 0.3371
16.2950 0.3372
16.3000 0.3373
16.3060 0.3373
16.3120 0.3374
16.3180 0.3374
16.3240 0.3374
16.3290 0.3374
16.3350 0.3374
16.3410 0.3374
16.3470 0.3373
16.3530 0.3372
16.3580 0.337
16.3640 0.3368
16.3700 0.3365
16.3760 0.3362
16.3820 0.3359
16.3870 0.3354
16.3930 0.3349
16.3990 0.3343
16.4050 0.3336
16.4110 0.3327
16.4160 0.3319
16.4220 0.3309
16.4280 0.3297
16.4340 0.3285
16.4400 0.3272
16.4450 0.3256
16.4510 0.3239
16.4570 0.3222
16.4630 0.3202
16.4690 0.3179
16.4740 0.3156
16.4800 0.3133
16.4860 0.3104
16.4920 0.3075
16.4980 0.3046
16.5030 0.3013
16.5090 0.2978
16.5150 0.2943
16.5210 0.2907
16.5270 0.2866
16.5320 0.2824
16.5380 0.2782
16.5440 0.2737
16.5500 0.2689
16.5560 0.2642
16.5610 0.2593
16.5670 0.2541
16.5730 0.2489
16.5790 0.2437
16.5850 0.2382
16.5900 0.2326
16.5960 0.2271
16.6020 0.2214
16.6080 0.2156
16.6140 0.2098
16.6190 0.2039
16.6250 0.198
16.6310 0.1921
16.6370 0.1862
16.6430 0.1803
16.6480 0.1745
16.6540 0.1686
16.6600 0.1627
16.6660 0.1571
16.6720 0.1514
16.6770 0.1457
16.6830 0.1403
16.6890 0.135
16.6950 0.1297
16.7010 0.1244
16.7060 0.1196
16.7120 0.1148
16.7180 0.1099
16.7240 0.1054
16.7300 0.1011
16.7350 0.0968
16.7410 0.0925
16.7470 0.0887
16.7530 0.0849
16.7590 0.0811
16.7640 0.0777
16.7700 0.0743
16.7760 0.071
16.7820 0.0678
16.7880 0.0649
16.7930 0.0619
16.7990 0.059
16.8050 0.0565
16.8110 0.0539
16.8170 0.0514
16.8220 0.049
16.8280 0.0469
16.8340 0.0447
16.8400 0.0425
16.8460 0.0406
16.8510 0.0387
16.8570 0.0368
16.8630 0.0351
16.8690 0.0335
16.8750 0.0318
16.8800 0.0302
16.8860 0.0289
16.8920 0.0275
16.8980 0.0261
16.9040 0.0249
16.9090 0.0237
16.9150 0.0225
16.9210 0.0214
16.9270 0.0204
16.9330 0.0194
16.9380 0.0184
16.9440 0.0176
16.9500 0.0167
16.9560 0.0159
16.9620 0.0152
16.9670 0.0145
16.9730 0.0138
16.9790 0.0132
16.9850 0.0126
16.9910 0.012
16.9960 0.0115
17.0020 0.011
17.0080 0.0105
17.0140 0.0101
17.0200 0.0096
17.0250 0.0092
17.0310 0.0088
17.0370 0.0084
17.0430 0.0081
17.0490 0.0077
17.0540 0.0074
17.0600 0.007
17.0660 0.0068
17.0720 0.0065
17.0780 0.0062
17.0830 0.0059
17.0890 0.0056
17.0950 0.0054
17.1010 0.0051
17.1070 0.0049
17.1120 0.0047
17.1180 0.0045
17.1240 0.0043
17.1300 0.0041
17.1360 0.0039
17.1410 0.0037
17.1470 0.0035
17.1530 0.0034
17.1590 0.0032
17.1650 0.0031
17.1700 0.0029
17.1760 0.0028
17.1820 0.0026
17.1880 0.0025
17.1940 0.0024
17.1990 0.0022
17.2050 0.0021
17.2110 0.002
17.2170 0.0019
17.2230 0.0018
17.2280 0.0017
17.2340 0.0016
17.2400 0.0016
17.2460 0.0015
17.2520 0.0014
17.2570 0.0014
17.2630 0.0013
17.2690 0.0012
17.2750 0.0012
17.2810 0.0011
17.2860 0.0011
17.2920 0.001
17.2980 0.001
17.3040 0.0009
17.3100 0.0009
17.3150 0.0009
17.3210 0.0008
17.3270 0.0008
17.3330 0.0008
17.3390 0.0007
17.3440 0.0007
17.3500 0.0006
17.3560 0.0006
17.3620 0.0006
17.3680 0.0005
17.3730 0.0005
17.3790 0.0005
17.3850 0.0005
17.3910 0.0004
17.3970 0.0004
17.4020 0.0004
17.4080 0.0003
17.4140 0.0003
17.4200 0.0003
17.4260 0.0003
17.4310 0.0002
17.4370 0.0002
17.4430 0.0002
17.4490 0.0002
17.4550 0.0002
17.4600 0.0001
17.4660 0.0001
17.4720 0.0001
17.4780 0.0001
17.4840 0.0001
17.4890 0.0001
17.4950 0.0001
17.5010 0.0001
17.5070 0.0001
